#Wavelength(AA) Transmission
3800.000000 0.000000
3805.000000 0.000240
3810.000000 0.000480
3815.000000 0.000540
3820.000000 0.000600
3825.000000 0.000600
3830.000000 0.000600
3835.000000 0.000700
3840.000000 0.000790
3845.000000 0.000870
3850.000000 0.000950
3855.000000 0.001030
3860.000000 0.001110
3865.000000 0.001230
3870.000000 0.001350
3875.000000 0.001470
3880.000000 0.001590
3885.000000 0.001780
3890.000000 0.001980
3895.000000 0.002180
3900.000000 0.002380
3905.000000 0.002370
3910.000000 0.002350
3915.000000 0.003340
3920.000000 0.004340
3925.000000 0.006590
3930.000000 0.008850
3935.000000 0.011120
3940.000000 0.013410
3945.000000 0.013680
3950.000000 0.013960
3955.000000 0.046490
3960.000000 0.079160
3965.000000 0.113490
3970.000000 0.147920
3975.000000 0.182450
3980.000000 0.217100
3985.000000 0.217020
3990.000000 0.217020
3995.000000 0.229460
4000.000000 0.241960
4005.000000 0.247820
4010.000000 0.253770
4015.000000 0.259700
4020.000000 0.265700
4025.000000 0.267810
4030.000000 0.269890
4035.000000 0.272180
4040.000000 0.274470
4045.000000 0.275180
4050.000000 0.275890
4055.000000 0.279180
4060.000000 0.282550
4065.000000 0.284530
4070.000000 0.286450
4075.000000 0.290740
4080.000000 0.294940
4085.000000 0.295680
4090.000000 0.296450
4095.000000 0.299040
4100.000000 0.301580
4105.000000 0.303430
4110.000000 0.305300
4115.000000 0.307210
4120.000000 0.309060
4125.000000 0.310470
4130.000000 0.311850
4135.000000 0.314270
4140.000000 0.316810
4145.000000 0.318350
4150.000000 0.319860
4155.000000 0.324810
4160.000000 0.329700
4165.000000 0.332710
4170.000000 0.335650
4175.000000 0.338600
4180.000000 0.341600
4185.000000 0.342550
4190.000000 0.343570
4195.000000 0.344230
4200.000000 0.344850
4205.000000 0.345580
4210.000000 0.346300
4215.000000 0.348700
4220.000000 0.351110
4225.000000 0.351810
4230.000000 0.352510
4235.000000 0.358470
4240.000000 0.364370
4245.000000 0.366380
4250.000000 0.368580
4255.000000 0.370830
4260.000000 0.372960
4265.000000 0.374740
4270.000000 0.376450
4275.000000 0.380420
4280.000000 0.384460
4285.000000 0.385140
4290.000000 0.385770
4295.000000 0.390100
4300.000000 0.394290
4305.000000 0.395910
4310.000000 0.397650
4315.000000 0.399470
4320.000000 0.401380
4325.000000 0.403630
4330.000000 0.405720
4335.000000 0.407730
4340.000000 0.409870
4345.000000 0.412370
4350.000000 0.414770
4355.000000 0.417400
4360.000000 0.420110
4365.000000 0.422460
4370.000000 0.424800
4375.000000 0.427160
4380.000000 0.429250
4385.000000 0.431980
4390.000000 0.434570
4395.000000 0.437440
4400.000000 0.440480
4405.000000 0.442590
4410.000000 0.444640
4415.000000 0.446520
4420.000000 0.448440
4425.000000 0.450030
4430.000000 0.451600
4435.000000 0.453270
4440.000000 0.454890
4445.000000 0.456310
4450.000000 0.457820
4455.000000 0.459510
4460.000000 0.461350
4465.000000 0.463040
4470.000000 0.464500
4475.000000 0.465910
4480.000000 0.467050
4485.000000 0.468580
4490.000000 0.470380
4495.000000 0.472380
4500.000000 0.474200
4505.000000 0.475810
4510.000000 0.477390
4515.000000 0.478910
4520.000000 0.480540
4525.000000 0.482620
4530.000000 0.484740
4535.000000 0.486930
4540.000000 0.489160
4545.000000 0.490470
4550.000000 0.491630
4555.000000 0.492730
4560.000000 0.493940
4565.000000 0.494710
4570.000000 0.495480
4575.000000 0.496200
4580.000000 0.496720
4585.000000 0.498490
4590.000000 0.500450
4595.000000 0.502470
4600.000000 0.504390
4605.000000 0.506230
4610.000000 0.508080
4615.000000 0.509970
4620.000000 0.512020
4625.000000 0.513660
4630.000000 0.515210
4635.000000 0.516610
4640.000000 0.518100
4645.000000 0.519510
4650.000000 0.520970
4655.000000 0.522540
4660.000000 0.524010
4665.000000 0.524440
4670.000000 0.524600
4675.000000 0.524830
4680.000000 0.525150
4685.000000 0.526050
4690.000000 0.526890
4695.000000 0.527790
4700.000000 0.528750
4705.000000 0.530060
4710.000000 0.531440
4715.000000 0.532860
4720.000000 0.534240
4725.000000 0.536120
4730.000000 0.538000
4735.000000 0.539770
4740.000000 0.541430
4745.000000 0.543290
4750.000000 0.545360
4755.000000 0.547440
4760.000000 0.549520
4765.000000 0.550170
4770.000000 0.550760
4775.000000 0.551350
4780.000000 0.551900
4785.000000 0.552390
4790.000000 0.552780
4795.000000 0.553040
4800.000000 0.553540
4805.000000 0.555070
4810.000000 0.556540
4815.000000 0.558020
4820.000000 0.559560
4825.000000 0.560390
4830.000000 0.561290
4835.000000 0.562130
4840.000000 0.562980
4845.000000 0.563070
4850.000000 0.563110
4855.000000 0.563200
4860.000000 0.563280
4865.000000 0.564930
4870.000000 0.566580
4875.000000 0.567990
4880.000000 0.569590
4885.000000 0.571070
4890.000000 0.572770
4895.000000 0.574770
4900.000000 0.576700
4905.000000 0.577690
4910.000000 0.578620
4915.000000 0.579490
4920.000000 0.580370
4925.000000 0.580190
4930.000000 0.580080
4935.000000 0.579900
4940.000000 0.579730
4945.000000 0.580220
4950.000000 0.580760
4955.000000 0.581360
4960.000000 0.581790
4965.000000 0.583990
4970.000000 0.586120
4975.000000 0.588380
4980.000000 0.590580
4985.000000 0.592050
4990.000000 0.593280
4995.000000 0.594520
5000.000000 0.595820
5005.000000 0.596700
5010.000000 0.597700
5015.000000 0.598710
5020.000000 0.599650
5025.000000 0.599900
5030.000000 0.600160
5035.000000 0.600350
5040.000000 0.600720
5045.000000 0.601750
5050.000000 0.602910
5055.000000 0.603870
5060.000000 0.604910
5065.000000 0.606530
5070.000000 0.608280
5075.000000 0.609900
5080.000000 0.611650
5085.000000 0.612810
5090.000000 0.613970
5095.000000 0.615130
5100.000000 0.616230
5105.000000 0.616100
5110.000000 0.616040
5115.000000 0.615790
5120.000000 0.615480
5125.000000 0.616040
5130.000000 0.616670
5135.000000 0.617420
5140.000000 0.617990
5145.000000 0.619590
5150.000000 0.621190
5155.000000 0.622790
5160.000000 0.624390
5165.000000 0.625230
5170.000000 0.625940
5175.000000 0.626720
5180.000000 0.627500
5185.000000 0.628460
5190.000000 0.629550
5195.000000 0.630640
5200.000000 0.631870
5205.000000 0.633490
5210.000000 0.635310
5215.000000 0.637130
5220.000000 0.638880
5225.000000 0.640290
5230.000000 0.641630
5235.000000 0.642960
5240.000000 0.644230
5245.000000 0.644930
5250.000000 0.645570
5255.000000 0.646280
5260.000000 0.647050
5265.000000 0.647230
5270.000000 0.647410
5275.000000 0.647720
5280.000000 0.647830
5285.000000 0.648200
5290.000000 0.648570
5295.000000 0.649000
5300.000000 0.649430
5305.000000 0.650460
5310.000000 0.651500
5315.000000 0.652460
5320.000000 0.653560
5325.000000 0.654590
5330.000000 0.655690
5335.000000 0.656790
5340.000000 0.657900
5345.000000 0.659220
5350.000000 0.660620
5355.000000 0.661950
5360.000000 0.663290
5365.000000 0.662770
5370.000000 0.662320
5375.000000 0.661800
5380.000000 0.661220
5385.000000 0.659610
5390.000000 0.658120
5395.000000 0.656510
5400.000000 0.654960
5405.000000 0.656420
5410.000000 0.657670
5415.000000 0.659070
5420.000000 0.660450
5425.000000 0.664850
5430.000000 0.669250
5435.000000 0.673440
5440.000000 0.677850
5445.000000 0.655600
5450.000000 0.633280
5455.000000 0.610880
5460.000000 0.588550
5465.000000 0.505180
5470.000000 0.421900
5475.000000 0.338380
5480.000000 0.254880
5485.000000 0.203470
5490.000000 0.152000
5495.000000 0.100520
5500.000000 0.049000
5505.000000 0.039500
5510.000000 0.030000
5515.000000 0.020490
5520.000000 0.010990
5525.000000 0.008870
5530.000000 0.006760
5535.000000 0.004640
5540.000000 0.002530
5545.000000 0.002130
5550.000000 0.001740
5555.000000 0.001340
5560.000000 0.000950
5565.000000 0.000850
5570.000000 0.000750
5575.000000 0.000650
5580.000000 0.000550
5585.000000 0.000510
5590.000000 0.000480
5595.000000 0.000440
5600.000000 0.000410
5605.000000 0.000390
5610.000000 0.000370
5615.000000 0.000350
5620.000000 0.000320
5625.000000 0.000310
5630.000000 0.000300
5635.000000 0.000280
5640.000000 0.000270
5645.000000 0.000130
5650.000000 0.000000
5655.000000 0.000000
5660.000000 0.000000
5665.000000 0.000000
5670.000000 0.000000
5675.000000 0.000000
5680.000000 0.000000
5685.000000 0.000000
5690.000000 0.000000
5695.000000 0.000000
5700.000000 0.000000
5705.000000 0.000000
5710.000000 0.000000
5715.000000 0.000000
5720.000000 0.000000
5725.000000 0.000000
5730.000000 0.000000
5735.000000 0.000000
5740.000000 0.000000
5745.000000 0.000000
5750.000000 0.000000
5755.000000 0.000000
5760.000000 0.000000
5765.000000 0.000000
5770.000000 0.000000
5775.000000 0.000000
5780.000000 0.000000
5785.000000 0.000000
5790.000000 0.000000
5795.000000 0.000000
5800.000000 0.000000
5805.000000 0.000000
5810.000000 0.000000
5815.000000 0.000000
5820.000000 0.000000
5825.000000 0.000000
5830.000000 0.000000
5835.000000 0.000000
5840.000000 0.000000
5845.000000 0.000000
5850.000000 0.000000
5855.000000 0.000000
5860.000000 0.000000
5865.000000 0.000000
5870.000000 0.000000
5875.000000 0.000000
5880.000000 0.000000
5885.000000 0.000000
5890.000000 0.000000
5895.000000 0.000000
5900.000000 0.000000
5905.000000 0.000000
5910.000000 0.000000
5915.000000 0.000000
5920.000000 0.000000
5925.000000 0.000000
5930.000000 0.000000
5935.000000 0.000000
5940.000000 0.000000
5945.000000 0.000000
5950.000000 0.000000
5955.000000 0.000000
5960.000000 0.000000
5965.000000 0.000000
5970.000000 0.000000
5975.000000 0.000000
5980.000000 0.000000
5985.000000 0.000000
5990.000000 0.000000
5995.000000 0.000000
6000.000000 0.000000
6005.000000 0.000000
6010.000000 0.000000
6015.000000 0.000000
6020.000000 0.000000
6025.000000 0.000000
6030.000000 0.000000
6035.000000 0.000000
6040.000000 0.000000
6045.000000 0.000000
6050.000000 0.000000
6055.000000 0.000000
6060.000000 0.000000
6065.000000 0.000000
6070.000000 0.000000
6075.000000 0.000000
6080.000000 0.000000
6085.000000 0.000000
6090.000000 0.000000
6095.000000 0.000000
6100.000000 0.000000
6105.000000 0.000000
6110.000000 0.000000
6115.000000 0.000000
6120.000000 0.000000
6125.000000 0.000000
6130.000000 0.000000
6135.000000 0.000000
6140.000000 0.000000
6145.000000 0.000000
6150.000000 0.000000
6155.000000 0.000000
6160.000000 0.000000
6165.000000 0.000000
6170.000000 0.000000
6175.000000 0.000000
6180.000000 0.000000
6185.000000 0.000000
6190.000000 0.000000
6195.000000 0.000000
6200.000000 0.000000
6205.000000 0.000000
6210.000000 0.000000
6215.000000 0.000000
6220.000000 0.000000
6225.000000 0.000000
6230.000000 0.000000
6235.000000 0.000000
6240.000000 0.000000
6245.000000 0.000000
6250.000000 0.000000
6255.000000 0.000000
6260.000000 0.000000
6265.000000 0.000000
6270.000000 0.000000
6275.000000 0.000000
6280.000000 0.000000
6285.000000 0.000000
6290.000000 0.000000
6295.000000 0.000000
6300.000000 0.000000
6305.000000 0.000000
6310.000000 0.000000
6315.000000 0.000000
6320.000000 0.000000
6325.000000 0.000000
6330.000000 0.000000
6335.000000 0.000000
6340.000000 0.000000
6345.000000 0.000000
6350.000000 0.000000
6355.000000 0.000000
6360.000000 0.000000
6365.000000 0.000000
6370.000000 0.000000
6375.000000 0.000000
6380.000000 0.000000
6385.000000 0.000000
6390.000000 0.000000
6395.000000 0.000000
6400.000000 0.000000
6405.000000 0.000000
6410.000000 0.000000
6415.000000 0.000000
6420.000000 0.000000
6425.000000 0.000000
6430.000000 0.000000
6435.000000 0.000000
6440.000000 0.000000
6445.000000 0.000000
6450.000000 0.000000
6455.000000 0.000000
6460.000000 0.000000
6465.000000 0.000000
6470.000000 0.000000
6475.000000 0.000000
6480.000000 0.000000
6485.000000 0.000000
6490.000000 0.000000
6495.000000 0.000000
6500.000000 0.000000
6505.000000 0.000000
6510.000000 0.000000
6515.000000 0.000000
6520.000000 0.000000
6525.000000 0.000000
6530.000000 0.000000
6535.000000 0.000000
6540.000000 0.000000
6545.000000 0.000000
6550.000000 0.000000
6555.000000 0.000000
6560.000000 0.000000
6565.000000 0.000000
6570.000000 0.000000
6575.000000 0.000000
6580.000000 0.000000
6585.000000 0.000000
6590.000000 0.000000
6595.000000 0.000000
6600.000000 0.000000
6605.000000 0.000000
6610.000000 0.000000
6615.000000 0.000000
6620.000000 0.000000
6625.000000 0.000000
6630.000000 0.000000
6635.000000 0.000000
6640.000000 0.000000
6645.000000 0.000000
6650.000000 0.000000
6655.000000 0.000000
6660.000000 0.000000
6665.000000 0.000000
6670.000000 0.000000
6675.000000 0.000000
6680.000000 0.000000
6685.000000 0.000000
6690.000000 0.000000
6695.000000 0.000000
6700.000000 0.000000
6705.000000 0.000000
6710.000000 0.000000
6715.000000 0.000000
6720.000000 0.000000
6725.000000 0.000000
6730.000000 0.000000
6735.000000 0.000000
6740.000000 0.000000
6745.000000 0.000000
6750.000000 0.000000
6755.000000 0.000000
6760.000000 0.000000
6765.000000 0.000000
6770.000000 0.000000
6775.000000 0.000000
6780.000000 0.000000
6785.000000 0.000000
6790.000000 0.000000
6795.000000 0.000000
6800.000000 0.000000
6805.000000 0.000000
6810.000000 0.000000
6815.000000 0.000000
6820.000000 0.000000
6825.000000 0.000000
6830.000000 0.000000
6835.000000 0.000000
6840.000000 0.000000
6845.000000 0.000000
6850.000000 0.000000
6855.000000 0.000000
6860.000000 0.000000
6865.000000 0.000000
6870.000000 0.000000
6875.000000 0.000000
6880.000000 0.000000
6885.000000 0.000000
6890.000000 0.000000
6895.000000 0.000000
6900.000000 0.000000
6905.000000 0.000000
6910.000000 0.000000
6915.000000 0.000000
6920.000000 0.000000
6925.000000 0.000000
6930.000000 0.000000
6935.000000 0.000000
6940.000000 0.000000
6945.000000 0.000000
6950.000000 0.000000
6955.000000 0.000000
6960.000000 0.000000
6965.000000 0.000000
6970.000000 0.000000
6975.000000 0.000000
6980.000000 0.000000
6985.000000 0.000000
6990.000000 0.000000
6995.000000 0.000000
7000.000000 0.000000
7005.000000 0.000000
7010.000000 0.000000
7015.000000 0.000000
7020.000000 0.000000
7025.000000 0.000000
7030.000000 0.000000
7035.000000 0.000000
7040.000000 0.000000
7045.000000 0.000000
7050.000000 0.000000
7055.000000 0.000000
7060.000000 0.000000
7065.000000 0.000000
7070.000000 0.000000
7075.000000 0.000000
7080.000000 0.000000
7085.000000 0.000000
7090.000000 0.000000
7095.000000 0.000000
7100.000000 0.000000
7105.000000 0.000000
7110.000000 0.000000
7115.000000 0.000000
7120.000000 0.000000
7125.000000 0.000000
7130.000000 0.000000
7135.000000 0.000000
7140.000000 0.000000
7145.000000 0.000000
7150.000000 0.000000
7155.000000 0.000000
7160.000000 0.000000
7165.000000 0.000000
7170.000000 0.000000
7175.000000 0.000000
7180.000000 0.000000
7185.000000 0.000000
7190.000000 0.000000
7195.000000 0.000000
7200.000000 0.000000
7205.000000 0.000000
7210.000000 0.000000
7215.000000 0.000000
7220.000000 0.000000
7225.000000 0.000000
7230.000000 0.000000
7235.000000 0.000000
7240.000000 0.000000
7245.000000 0.000000
7250.000000 0.000000
7255.000000 0.000000
7260.000000 0.000000
7265.000000 0.000000
7270.000000 0.000000
7275.000000 0.000000
7280.000000 0.000000
7285.000000 0.000000
7290.000000 0.000000
7295.000000 0.000000
7300.000000 0.000000
7305.000000 0.000000
7310.000000 0.000000
7315.000000 0.000000
7320.000000 0.000000
7325.000000 0.000000
7330.000000 0.000000
7335.000000 0.000000
7340.000000 0.000000
7345.000000 0.000000
7350.000000 0.000000
7355.000000 0.000000
7360.000000 0.000000
7365.000000 0.000000
7370.000000 0.000000
7375.000000 0.000000
7380.000000 0.000000
7385.000000 0.000000
7390.000000 0.000000
7395.000000 0.000000
7400.000000 0.000000
7405.000000 0.000000
7410.000000 0.000000
7415.000000 0.000000
7420.000000 0.000000
7425.000000 0.000000
7430.000000 0.000000
7435.000000 0.000000
7440.000000 0.000000
7445.000000 0.000000
7450.000000 0.000000
7455.000000 0.000000
7460.000000 0.000000
7465.000000 0.000000
7470.000000 0.000000
7475.000000 0.000000
7480.000000 0.000000
7485.000000 0.000000
7490.000000 0.000000
7495.000000 0.000000
7500.000000 0.000000
7505.000000 0.000000
7510.000000 0.000000
7515.000000 0.000000
7520.000000 0.000000
7525.000000 0.000000
7530.000000 0.000000
7535.000000 0.000000
7540.000000 0.000000
7545.000000 0.000000
7550.000000 0.000000
7555.000000 0.000000
7560.000000 0.000000
7565.000000 0.000000
7570.000000 0.000000
7575.000000 0.000000
7580.000000 0.000000
7585.000000 0.000000
7590.000000 0.000000
7595.000000 0.000000
7600.000000 0.000000
7605.000000 0.000000
7610.000000 0.000000
7615.000000 0.000000
7620.000000 0.000000
7625.000000 0.000000
7630.000000 0.000000
7635.000000 0.000000
7640.000000 0.000000
7645.000000 0.000000
7650.000000 0.000000
7655.000000 0.000000
7660.000000 0.000000
7665.000000 0.000000
7670.000000 0.000000
7675.000000 0.000000
7680.000000 0.000000
7685.000000 0.000000
7690.000000 0.000000
7695.000000 0.000000
7700.000000 0.000000
7705.000000 0.000000
7710.000000 0.000000
7715.000000 0.000000
7720.000000 0.000000
7725.000000 0.000000
7730.000000 0.000000
7735.000000 0.000000
7740.000000 0.000000
7745.000000 0.000000
7750.000000 0.000000
7755.000000 0.000000
7760.000000 0.000000
7765.000000 0.000000
7770.000000 0.000000
7775.000000 0.000000
7780.000000 0.000000
7785.000000 0.000000
7790.000000 0.000000
7795.000000 0.000000
7800.000000 0.000000
7805.000000 0.000000
7810.000000 0.000000
7815.000000 0.000000
7820.000000 0.000000
7825.000000 0.000000
7830.000000 0.000000
7835.000000 0.000000
7840.000000 0.000000
7845.000000 0.000000
7850.000000 0.000000
7855.000000 0.000000
7860.000000 0.000000
7865.000000 0.000000
7870.000000 0.000000
7875.000000 0.000000
7880.000000 0.000000
7885.000000 0.000000
7890.000000 0.000000
7895.000000 0.000000
7900.000000 0.000000
7905.000000 0.000000
7910.000000 0.000000
7915.000000 0.000000
7920.000000 0.000000
7925.000000 0.000000
7930.000000 0.000000
7935.000000 0.000000
7940.000000 0.000000
7945.000000 0.000000
7950.000000 0.000000
7955.000000 0.000000
7960.000000 0.000000
7965.000000 0.000000
7970.000000 0.000000
7975.000000 0.000000
7980.000000 0.000000
7985.000000 0.000000
7990.000000 0.000000
7995.000000 0.000000
8000.000000 0.000000
8005.000000 0.000000
8010.000000 0.000000
8015.000000 0.000000
8020.000000 0.000000
8025.000000 0.000000
8030.000000 0.000000
8035.000000 0.000000
8040.000000 0.000000
8045.000000 0.000000
8050.000000 0.000000
8055.000000 0.000000
8060.000000 0.000000
8065.000000 0.000000
8070.000000 0.000000
8075.000000 0.000000
8080.000000 0.000000
8085.000000 0.000000
8090.000000 0.000000
8095.000000 0.000000
8100.000000 0.000000
8105.000000 0.000000
8110.000000 0.000000
8115.000000 0.000000
8120.000000 0.000000
8125.000000 0.000000
8130.000000 0.000000
8135.000000 0.000000
8140.000000 0.000000
8145.000000 0.000000
8150.000000 0.000000
8155.000000 0.000000
8160.000000 0.000000
8165.000000 0.000000
8170.000000 0.000000
8175.000000 0.000000
8180.000000 0.000000
8185.000000 0.000000
8190.000000 0.000000
8195.000000 0.000000
8200.000000 0.000000
8205.000000 0.000000
8210.000000 0.000000
8215.000000 0.000000
8220.000000 0.000000
8225.000000 0.000000
8230.000000 0.000000
8235.000000 0.000000
8240.000000 0.000000
8245.000000 0.000000
8250.000000 0.000000
8255.000000 0.000000
8260.000000 0.000000
8265.000000 0.000000
8270.000000 0.000000
8275.000000 0.000000
8280.000000 0.000000
8285.000000 0.000000
8290.000000 0.000000
8295.000000 0.000000
8300.000000 0.000000
8305.000000 0.000000
8310.000000 0.000000
8315.000000 0.000000
8320.000000 0.000000
8325.000000 0.000000
8330.000000 0.000000
8335.000000 0.000000
8340.000000 0.000000
8345.000000 0.000000
8350.000000 0.000000
8355.000000 0.000000
8360.000000 0.000000
8365.000000 0.000000
8370.000000 0.000000
8375.000000 0.000000
8380.000000 0.000000
8385.000000 0.000000
8390.000000 0.000000
8395.000000 0.000000
8400.000000 0.000000
8405.000000 0.000000
8410.000000 0.000000
8415.000000 0.000000
8420.000000 0.000000
8425.000000 0.000000
8430.000000 0.000000
8435.000000 0.000000
8440.000000 0.000000
8445.000000 0.000000
8450.000000 0.000000
8455.000000 0.000000
8460.000000 0.000000
8465.000000 0.000000
8470.000000 0.000000
8475.000000 0.000000
8480.000000 0.000000
8485.000000 0.000000
8490.000000 0.000000
8495.000000 0.000000
8500.000000 0.000000
8505.000000 0.000000
8510.000000 0.000000
8515.000000 0.000000
8520.000000 0.000000
8525.000000 0.000000
8530.000000 0.000000
8535.000000 0.000000
8540.000000 0.000000
8545.000000 0.000000
8550.000000 0.000000
